time	soil_moist(1)	SWE(1)
units	(mm)	(mm)
26938.04167	225	0
26938.08333	225	0
26938.125	225	0
26938.16667	225	0
26938.20833	225	0
26938.25	225	0
26938.29167	224.984	0
26938.33333	224.962	0
26938.375	224.939	0
26938.41667	224.917	0
26938.45833	224.895	0
26938.5	224.873	0
26938.54167	224.851	0
26938.58333	224.829	0
26938.625	224.807	0
26938.66667	224.791	0
26938.70833	224.791	0
26938.75	224.791	0
26938.79167	224.791	0
26938.83333	224.791	0
26938.875	224.791	0
26938.91667	224.791	0
26938.95833	224.791	0
26939	224.791	0
26939.04167	224.949	0
26939.08333	225.107	0
26939.125	225.266	0
26939.16667	225.329	0.0987777
26939.20833	225.329	0.263407
26939.25	225.329	0.428037
26939.29167	225.329	0.592666
26939.33333	225.413	0.669493
26939.375	225.572	0.669493
26939.41667	225.73	0.669493
26939.45833	225.888	0.669493
26939.5	226.047	0.669493
26939.54167	226.205	0.669493
26939.58333	226.363	0.669493
26939.625	226.522	0.669493
26939.66667	226.68	0.669493
26939.70833	226.838	0.669493
26939.75	226.997	0.669493
26939.79167	227.155	0.669493
26939.83333	227.313	0.669493
26939.875	227.472	0.669493
26939.91667	227.556	0.74632
26939.95833	227.693	0.768271
26940	227.693	0.9329
26940.04167	227.693	0.9329
26940.08333	227.693	0.9329
26940.125	227.693	0.9329
26940.16667	227.693	0.9329
26940.20833	227.693	0.9329
26940.25	227.693	0.9329
26940.29167	227.693	0.9329
26940.33333	227.693	0.9329
26940.375	227.693	0.9329
26940.41667	227.693	0.9329
26940.45833	227.693	0.9329
26940.5	227.693	0.9329
26940.54167	227.693	0.9329
26940.58333	227.693	0.9329
26940.625	227.693	0.9329
26940.66667	227.693	0.9329
26940.70833	227.693	0.9329
26940.75	227.693	0.9329
26940.79167	227.693	0.9329
26940.83333	227.693	0.9329
26940.875	227.693	0.9329
26940.91667	227.693	0.9329
26940.95833	227.693	0.9329
26941	227.732	0
26941.04167	227.771	0
26941.08333	227.81	0
26941.125	227.849	0
26941.16667	227.888	0
26941.20833	227.927	0
26941.25	227.965	0
26941.29167	228.004	0
26941.33333	228.043	0
26941.375	228.082	0
26941.41667	228.121	0
26941.45833	228.16	0
26941.5	228.199	0
26941.54167	228.238	0
26941.58333	228.276	0
26941.625	228.315	0
26941.66667	228.354	0
26941.70833	228.393	0
26941.75	228.432	0
26941.79167	228.471	0
26941.83333	228.51	0
26941.875	228.549	0
26941.91667	228.587	0
26941.95833	228.626	0
26942	228.626	0
26942.04167	228.626	0
26942.08333	228.626	0
26942.125	228.626	0
26942.16667	228.626	0
26942.20833	228.626	0
26942.25	228.626	0
26942.29167	228.626	0
26942.33333	228.626	0
26942.375	228.626	0
26942.41667	228.626	0
26942.45833	228.626	0
26942.5	228.626	0
26942.54167	228.626	0
26942.58333	228.626	0
26942.625	228.626	0
26942.66667	228.626	0
26942.70833	228.626	0
26942.75	228.626	0
26942.79167	228.626	0
26942.83333	228.626	0
26942.875	228.626	0
26942.91667	228.626	0
26942.95833	228.626	0
26943	228.626	0
26943.04167	228.626	0
26943.08333	228.626	0
26943.125	228.626	0
26943.16667	228.626	0
26943.20833	228.626	0
26943.25	228.626	0
26943.29167	228.626	0
26943.33333	228.626	0
26943.375	228.626	0
26943.41667	228.626	0
26943.45833	228.626	0
26943.5	228.626	0
26943.54167	228.626	0
26943.58333	228.626	0
26943.625	228.626	0
26943.66667	228.626	0
26943.70833	228.626	0
26943.75	228.626	0
26943.79167	228.626	0
26943.83333	228.626	0
26943.875	228.626	0
26943.91667	228.626	0
26943.95833	228.626	0
26944	228.626	0
26944.04167	228.626	0
26944.08333	228.626	0
26944.125	228.626	0
26944.16667	228.626	0
26944.20833	228.626	0
26944.25	228.626	0
26944.29167	228.626	0
26944.33333	228.626	0
26944.375	228.626	0
26944.41667	228.626	0
26944.45833	228.626	0
26944.5	228.626	0
26944.54167	228.626	0
26944.58333	228.626	0
26944.625	228.626	0
26944.66667	228.626	0
26944.70833	228.626	0
26944.75	228.626	0
26944.79167	228.626	0
26944.83333	228.626	0
26944.875	228.626	0
26944.91667	228.626	0
26944.95833	228.626	0
26945	228.626	0
26945.04167	228.626	0
26945.08333	228.626	0
26945.125	228.626	0
26945.16667	228.626	0
26945.20833	228.626	0
26945.25	228.626	0
26945.29167	228.626	0
26945.33333	228.626	0
26945.375	228.626	0
26945.41667	228.626	0
26945.45833	228.626	0
26945.5	228.626	0
26945.54167	228.626	0
26945.58333	228.626	0
26945.625	228.626	0
26945.66667	228.626	0
26945.70833	228.626	0
26945.75	228.626	0
26945.79167	228.626	0
26945.83333	228.626	0
26945.875	228.626	0
26945.91667	228.626	0
26945.95833	228.626	0
26946	228.626	0
26946.04167	228.626	0
26946.08333	228.626	0
26946.125	228.626	0
26946.16667	228.626	0
26946.20833	228.626	0
26946.25	228.626	0
26946.29167	228.626	0
26946.33333	228.626	0
26946.375	228.626	0
26946.41667	228.626	0
26946.45833	228.626	0
26946.5	228.626	0
26946.54167	228.626	0
26946.58333	228.626	0
26946.625	228.626	0
26946.66667	228.626	0
26946.70833	228.626	0
26946.75	228.626	0
26946.79167	228.626	0
26946.83333	228.626	0
26946.875	228.626	0
26946.91667	228.626	0
26946.95833	228.626	0
26947	228.626	0
26947.04167	228.626	0
26947.08333	228.626	0
26947.125	228.626	0
26947.16667	228.626	0
26947.20833	228.626	0
26947.25	228.626	0
26947.29167	228.626	0
26947.33333	228.626	0
26947.375	228.626	0
26947.41667	228.626	0
26947.45833	228.626	0
26947.5	228.626	0
26947.54167	228.626	0
26947.58333	228.626	0
26947.625	228.626	0
26947.66667	228.626	0
26947.70833	228.626	0
26947.75	228.626	0
26947.79167	228.626	0
26947.83333	228.626	0
26947.875	228.626	0
26947.91667	228.626	0
26947.95833	228.626	0
26948	228.626	0
26948.04167	228.626	0
26948.08333	228.626	0
26948.125	228.626	0
26948.16667	228.626	0
26948.20833	228.626	0
26948.25	228.626	0
26948.29167	228.626	0
26948.33333	228.626	0
26948.375	228.626	0
26948.41667	228.626	0
26948.45833	228.626	0
26948.5	228.626	0
26948.54167	228.626	0
26948.58333	228.626	0
26948.625	228.626	0
26948.66667	228.626	0
26948.70833	228.626	0
26948.75	228.626	0
26948.79167	228.626	0
26948.83333	228.626	0
26948.875	228.626	0
26948.91667	228.626	0
26948.95833	228.626	0
26949	228.626	0
26949.04167	228.626	0
26949.08333	228.626	0
26949.125	228.626	0
26949.16667	228.626	0
26949.20833	228.626	0
26949.25	228.626	0
26949.29167	228.626	0
26949.33333	228.626	0
26949.375	228.626	0
26949.41667	228.626	0
26949.45833	228.626	0
26949.5	228.626	0
26949.54167	228.626	0
26949.58333	228.626	0
26949.625	228.626	0
26949.66667	228.626	0
26949.70833	228.626	0
26949.75	228.626	0
26949.79167	228.626	0
26949.83333	228.626	0
26949.875	228.626	0
26949.91667	228.626	0
26949.95833	228.626	0
26950	228.626	0
26950.04167	228.626	0
26950.08333	228.626	0
26950.125	228.626	0
26950.16667	228.626	0
26950.20833	228.626	0
26950.25	228.626	0
26950.29167	228.626	0
26950.33333	228.626	0
26950.375	228.626	0
26950.41667	228.626	0
26950.45833	228.626	0
26950.5	228.626	0
26950.54167	228.626	0
26950.58333	228.626	0
26950.625	228.626	0
26950.66667	228.626	0
26950.70833	228.626	0
26950.75	228.626	0
26950.79167	228.626	0
26950.83333	228.626	0
26950.875	228.626	0
26950.91667	228.626	0
26950.95833	228.626	0
26951	228.626	0
26951.04167	228.626	0
26951.08333	228.626	0
26951.125	228.626	0
26951.16667	228.626	0
26951.20833	228.626	0
26951.25	228.626	0
26951.29167	228.626	0
26951.33333	228.626	0
26951.375	228.626	0
26951.41667	228.626	0
26951.45833	228.626	0
26951.5	228.626	0
26951.54167	228.626	0
26951.58333	228.626	0
26951.625	228.626	0
26951.66667	228.626	0
26951.70833	228.626	0
26951.75	228.626	0
26951.79167	228.626	0
26951.83333	228.626	0
26951.875	228.626	0
26951.91667	228.626	0
26951.95833	228.626	0
26952	228.626	0
26952.04167	228.626	0
26952.08333	228.626	0
26952.125	228.626	0
26952.16667	228.626	0
26952.20833	228.626	0
26952.25	228.626	0
26952.29167	228.626	0
26952.33333	228.626	0
26952.375	228.626	0
26952.41667	228.626	0
26952.45833	228.626	0
26952.5	228.626	0
26952.54167	228.626	0
26952.58333	228.626	0
26952.625	228.626	0
26952.66667	228.626	0
26952.70833	228.626	0
26952.75	228.626	0
26952.79167	228.626	0
26952.83333	228.626	0
26952.875	228.626	0
26952.91667	228.626	0
26952.95833	228.626	0
26953	228.626	0
26953.04167	228.626	0
26953.08333	228.626	0
26953.125	228.626	0
26953.16667	228.626	0
26953.20833	228.626	0
26953.25	228.626	0
26953.29167	228.626	0
26953.33333	228.626	0
26953.375	228.626	0
26953.41667	228.626	0
26953.45833	228.626	0
26953.5	228.626	0
26953.54167	228.626	0
26953.58333	228.626	0
26953.625	228.626	0
26953.66667	228.626	0
26953.70833	228.626	0
26953.75	228.626	0
26953.79167	228.626	0
26953.83333	228.626	0
26953.875	228.626	0
26953.91667	228.626	0
26953.95833	228.626	0
26954	228.626	0
26954.04167	228.626	0
26954.08333	228.626	0
26954.125	228.626	0
26954.16667	228.626	0
26954.20833	228.626	0
26954.25	228.626	0
26954.29167	228.626	0
26954.33333	228.626	0
26954.375	228.626	0
26954.41667	228.626	0
26954.45833	228.626	0
26954.5	228.626	0
26954.54167	228.626	0
26954.58333	228.626	0
26954.625	228.626	0
26954.66667	228.626	0
26954.70833	228.626	0
26954.75	228.626	0
26954.79167	228.626	0
26954.83333	228.626	0
26954.875	228.626	0
26954.91667	228.626	0
26954.95833	228.626	0
26955	228.626	0
26955.04167	228.626	0
26955.08333	228.626	0
26955.125	228.626	0
26955.16667	228.626	0
26955.20833	228.626	0
26955.25	228.626	0
26955.29167	228.626	0
26955.33333	228.626	0
26955.375	228.626	0
26955.41667	228.626	0
26955.45833	228.626	0
26955.5	228.626	0
26955.54167	228.626	0
26955.58333	228.626	0
26955.625	228.626	0
26955.66667	228.626	0
26955.70833	228.626	0
26955.75	228.626	0
26955.79167	228.626	0
26955.83333	228.626	0
26955.875	228.626	0
26955.91667	228.626	0
26955.95833	228.626	0
26956	228.626	0
26956.04167	228.626	0
26956.08333	228.626	0
26956.125	228.626	0
26956.16667	228.626	0
26956.20833	228.626	0
26956.25	228.626	0
26956.29167	228.626	0
26956.33333	228.626	0
26956.375	228.626	0
26956.41667	228.626	0
26956.45833	228.626	0
26956.5	228.626	0
26956.54167	228.626	0
26956.58333	228.626	0
26956.625	228.626	0
26956.66667	228.626	0
26956.70833	228.626	0
26956.75	228.626	0
26956.79167	228.626	0
26956.83333	228.626	0
26956.875	228.626	0
26956.91667	228.626	0
26956.95833	228.626	0
26957	228.626	0
26957.04167	228.626	0
26957.08333	228.626	0
26957.125	228.626	0
26957.16667	228.626	0
26957.20833	228.626	0
26957.25	228.626	0
26957.29167	228.626	0
26957.33333	228.626	0
26957.375	228.626	0
26957.41667	228.626	0
26957.45833	228.626	0
26957.5	228.626	0
26957.54167	228.626	0
26957.58333	228.626	0
26957.625	228.626	0
26957.66667	228.626	0
26957.70833	228.626	0
26957.75	228.626	0
26957.79167	228.626	0
26957.83333	228.626	0
26957.875	228.626	0
26957.91667	228.626	0
26957.95833	228.626	0
26958	228.626	0
26958.04167	228.626	0
26958.08333	228.626	0
26958.125	228.626	0
26958.16667	228.626	0
26958.20833	228.626	0
26958.25	228.626	0
26958.29167	228.626	0
26958.33333	228.626	0
26958.375	228.626	0
26958.41667	228.626	0
26958.45833	228.626	0
26958.5	228.626	0
26958.54167	228.626	0
26958.58333	228.626	0
26958.625	228.626	0
26958.66667	228.626	0
26958.70833	228.626	0
26958.75	228.626	0
26958.79167	228.626	0
26958.83333	228.626	0
26958.875	228.626	0
26958.91667	228.626	0
26958.95833	228.626	0
26959	228.626	0
26959.04167	228.626	0
26959.08333	228.626	0
26959.125	228.626	0
26959.16667	228.626	0
26959.20833	228.626	0
26959.25	228.626	0
26959.29167	228.626	0
26959.33333	228.626	0
26959.375	228.626	0
26959.41667	228.626	0
26959.45833	228.626	0
26959.5	228.626	0
26959.54167	228.626	0
26959.58333	228.626	0
26959.625	228.626	0
26959.66667	228.626	0
26959.70833	228.626	0
26959.75	228.626	0
26959.79167	228.626	0
26959.83333	228.626	0
26959.875	228.626	0
26959.91667	228.626	0
26959.95833	228.626	0
26960	228.626	0
26960.04167	228.626	0
26960.08333	228.626	0
26960.125	228.626	0
26960.16667	228.626	0
26960.20833	228.626	0
26960.25	228.626	0
26960.29167	228.626	0
26960.33333	228.626	0
26960.375	228.626	0
26960.41667	228.626	0
26960.45833	228.626	0
26960.5	228.626	0
26960.54167	228.626	0
26960.58333	228.626	0
26960.625	228.626	0
26960.66667	228.626	0
26960.70833	228.626	0
26960.75	228.626	0
26960.79167	228.626	0
26960.83333	228.626	0
26960.875	228.626	0
26960.91667	228.626	0
26960.95833	228.626	0
26961	228.626	0
26961.04167	228.626	0
26961.08333	228.626	0
26961.125	228.626	0
26961.16667	228.626	0
26961.20833	228.626	0
26961.25	228.626	0
26961.29167	228.626	0
26961.33333	228.626	0
26961.375	228.626	0
26961.41667	228.626	0
26961.45833	228.626	0
26961.5	228.626	0
26961.54167	228.626	0
26961.58333	228.626	0
26961.625	228.626	0
26961.66667	228.626	0
26961.70833	228.626	0
26961.75	228.626	0
26961.79167	228.626	0
26961.83333	228.626	0
26961.875	228.626	0
26961.91667	228.626	0
26961.95833	228.626	0
26962	228.626	0
26962.04167	228.626	0
26962.08333	228.626	0
26962.125	228.626	0
26962.16667	228.626	0
26962.20833	228.626	0
26962.25	228.626	0
26962.29167	228.626	0
26962.33333	228.626	0
26962.375	228.626	0
26962.41667	228.626	0
26962.45833	228.626	0
26962.5	228.626	0
26962.54167	228.626	0
26962.58333	228.626	0
26962.625	228.626	0
26962.66667	228.626	0
26962.70833	228.626	0
26962.75	228.626	0
26962.79167	228.626	0
26962.83333	228.626	0
26962.875	228.626	0
26962.91667	228.626	0
26962.95833	228.626	0
26963	228.626	0
26963.04167	228.626	0
26963.08333	228.626	0
26963.125	228.626	0
26963.16667	228.626	0
26963.20833	228.626	0
26963.25	228.626	0
26963.29167	228.626	0
26963.33333	228.626	0
26963.375	228.626	0
26963.41667	228.626	0
26963.45833	228.626	0
26963.5	228.626	0
26963.54167	228.626	0
26963.58333	228.626	0
26963.625	228.626	0
26963.66667	228.626	0
26963.70833	228.626	0
26963.75	228.626	0
26963.79167	228.626	0
26963.83333	228.626	0
26963.875	228.626	0
26963.91667	228.626	0
26963.95833	228.626	0
26964	228.626	0
26964.04167	228.626	0
26964.08333	228.626	0
26964.125	228.626	0
26964.16667	228.626	0
26964.20833	228.626	0
26964.25	228.626	0
26964.29167	228.626	0
26964.33333	228.626	0
26964.375	228.626	0
26964.41667	228.626	0
26964.45833	228.626	0
26964.5	228.626	0
26964.54167	228.626	0
26964.58333	228.626	0
26964.625	228.626	0
26964.66667	228.626	0
26964.70833	228.626	0
26964.75	228.626	0
26964.79167	228.626	0
26964.83333	228.626	0
26964.875	228.626	0
26964.91667	228.626	0
26964.95833	228.626	0
26965	228.626	0
26965.04167	228.626	0
26965.08333	228.626	0
26965.125	228.626	0
26965.16667	228.626	0
26965.20833	228.626	0
26965.25	228.626	0
26965.29167	228.626	0
26965.33333	228.626	0
26965.375	228.626	0
26965.41667	228.626	0
26965.45833	228.626	0
26965.5	228.626	0
26965.54167	228.626	0
26965.58333	228.626	0
26965.625	228.626	0
26965.66667	228.626	0
26965.70833	228.626	0
26965.75	228.626	0
26965.79167	228.626	0
26965.83333	228.626	0
26965.875	228.626	0
26965.91667	228.626	0
26965.95833	228.626	0
26966	228.626	0
26966.04167	228.626	0
26966.08333	228.626	0
26966.125	228.626	0
26966.16667	228.626	0
26966.20833	228.626	0
26966.25	228.626	0
26966.29167	228.626	0
26966.33333	228.626	0
26966.375	228.626	0
26966.41667	228.626	0
26966.45833	228.626	0
26966.5	228.626	0
26966.54167	228.626	0
26966.58333	228.626	0
26966.625	228.626	0
26966.66667	228.626	0
26966.70833	228.626	0
26966.75	228.626	0
26966.79167	228.626	0
26966.83333	228.626	0
26966.875	228.626	0
26966.91667	228.626	0
26966.95833	228.626	0
26967	228.626	0
26967.04167	228.626	0
26967.08333	228.626	0
26967.125	228.626	0
26967.16667	228.626	0
26967.20833	228.626	0
26967.25	228.626	0
26967.29167	228.626	0
26967.33333	228.626	0
26967.375	228.626	0
26967.41667	228.626	0
26967.45833	228.626	0
26967.5	228.626	0
26967.54167	228.626	0
26967.58333	228.626	0
26967.625	228.626	0
26967.66667	228.626	0
26967.70833	228.626	0
26967.75	228.626	0
26967.79167	228.626	0
26967.83333	228.626	0
26967.875	228.626	0
26967.91667	228.626	0
26967.95833	228.626	0
26968	228.626	0
26968.04167	228.626	0.0288028
26968.08333	228.626	0.0576055
26968.125	228.626	0.0864083
26968.16667	228.626	0.115211
26968.20833	228.626	0.144014
26968.25	228.626	0.172817
26968.29167	228.626	0.201619
26968.33333	228.626	0.230422
26968.375	228.626	0.259225
26968.41667	228.626	0.288028
26968.45833	228.641	0.296669
26968.5	228.653	0.30819
26968.54167	228.663	0.323551
26968.58333	228.671	0.340833
26968.625	228.68	0.358114
26968.66667	228.688	0.375396
26968.70833	228.701	0.386917
26968.75	228.701	0.41572
26968.79167	228.701	0.444523
26968.83333	228.701	0.473326
26968.875	228.701	0.502128
26968.91667	228.701	0.530931
26968.95833	228.701	0.559734
26969	228.701	0.588537
26969.04167	228.701	0.69268
26969.08333	228.701	0.796823
26969.125	228.701	0.900966
26969.16667	228.701	1.00511
26969.20833	228.701	1.10925
26969.25	228.701	1.21339
26969.29167	228.701	1.31754
26969.33333	228.701	1.42168
26969.375	228.701	1.52582
26969.41667	228.701	1.62997
26969.45833	228.701	1.73411
26969.5	228.701	1.83825
26969.54167	228.701	1.9424
26969.58333	228.701	2.04654
26969.625	228.701	2.15068
26969.66667	228.701	2.25483
26969.70833	228.701	2.35897
26969.75	228.701	2.46311
26969.79167	228.701	2.56725
26969.83333	228.701	2.6714
26969.875	228.701	2.77554
26969.91667	228.701	2.87968
26969.95833	228.701	2.98383
26970	228.701	3.08797
26970.04167	228.701	3.08797
26970.08333	228.701	3.08797
26970.125	228.701	3.08797
26970.16667	228.701	3.08797
26970.20833	228.701	3.08797
26970.25	228.701	3.08797
26970.29167	228.701	3.08797
26970.33333	228.701	3.08797
26970.375	228.701	3.08797
26970.41667	228.701	3.08797
26970.45833	228.701	3.08797
26970.5	228.701	3.08797
26970.54167	228.701	3.08797
26970.58333	228.701	3.08797
26970.625	228.701	3.08797
26970.66667	228.701	3.08797
26970.70833	228.701	3.08797
26970.75	228.701	3.08797
26970.79167	228.701	3.08797
26970.83333	228.701	3.08797
26970.875	228.701	3.08797
26970.91667	228.701	3.08797
26970.95833	228.701	3.08797
26971	228.701	3.08797
26971.04167	228.701	3.08797
26971.08333	228.701	3.08797
26971.125	228.701	3.08797
26971.16667	228.701	3.08797
26971.20833	228.701	3.08797
26971.25	228.701	3.08797
26971.29167	228.701	3.08797
26971.33333	228.701	3.08797
26971.375	228.701	3.08797
26971.41667	228.701	3.08797
26971.45833	228.701	3.08797
26971.5	228.701	3.08797
26971.54167	228.701	3.08797
26971.58333	228.701	3.08797
26971.625	228.701	3.08797
26971.66667	228.701	3.08797
26971.70833	228.701	3.08797
26971.75	228.701	3.08797
26971.79167	228.701	3.08797
26971.83333	228.701	3.08797
26971.875	228.701	3.08797
26971.91667	228.701	3.08797
26971.95833	228.701	3.08797
26972	228.701	3.08797
26972.04167	228.701	3.1271
26972.08333	228.701	3.16623
26972.125	228.701	3.20537
26972.16667	228.701	3.2445
26972.20833	228.701	3.28363
26972.25	228.701	3.32276
26972.29167	228.701	3.36189
26972.33333	228.701	3.40102
26972.375	228.701	3.44016
26972.41667	228.701	3.47929
26972.45833	228.701	3.51842
26972.5	228.701	3.55755
26972.54167	228.701	3.59668
26972.58333	228.701	3.63581
26972.625	228.701	3.67494
26972.66667	228.701	3.71408
26972.70833	228.701	3.75321
26972.75	228.701	3.79234
26972.79167	228.701	3.83147
26972.83333	228.701	3.8706
26972.875	228.701	3.90973
26972.91667	228.701	3.94887
26972.95833	228.701	3.988
26973	228.701	4.02713
26973.04167	228.701	4.61979
26973.08333	228.701	5.21245
26973.125	228.701	5.8051
26973.16667	228.701	6.39776
26973.20833	228.701	6.99042
26973.25	228.701	7.58308
26973.29167	228.701	8.17574
26973.33333	228.701	8.76839
26973.375	228.701	9.36105
26973.41667	228.701	9.95371
26973.45833	228.701	10.5464
26973.5	228.701	11.139
26973.54167	228.701	11.7317
26973.58333	228.701	12.3243
26973.625	228.701	12.917
26973.66667	228.701	13.5097
26973.70833	228.701	14.1023
26973.75	228.701	14.695
26973.79167	228.701	15.2876
26973.83333	228.701	15.8803
26973.875	228.701	16.4729
26973.91667	228.701	17.0656
26973.95833	228.701	17.6583
26974	228.701	18.2509
26974.04167	228.701	18.2835
26974.08333	228.701	18.3161
26974.125	228.701	18.3488
26974.16667	228.701	18.3814
26974.20833	228.701	18.414
26974.25	228.701	18.4466
26974.29167	228.701	18.4792
26974.33333	228.701	18.5118
26974.375	228.701	18.5444
26974.41667	228.701	18.5771
26974.45833	228.701	18.6097
26974.5	228.701	18.6423
26974.54167	228.701	18.6749
26974.58333	228.701	18.7075
26974.625	228.701	18.7401
26974.66667	228.701	18.7727
26974.70833	228.701	18.8054
26974.75	228.701	18.838
26974.79167	228.701	18.8706
26974.83333	228.701	18.9032
26974.875	228.701	18.9358
26974.91667	228.701	18.9684
26974.95833	228.701	19.001
26975	228.701	19.0336
26975.04167	228.701	19.0336
26975.08333	228.701	19.0336
